wl(um)	n	k
0.4	4.3587	2.1542
0.401	4.3771	2.1306
0.402	4.3935	2.1075
0.403	4.408	2.085
0.404	4.4208	2.0636
0.405	4.432	2.0433
0.406	4.4417	2.0245
0.407	4.4503	2.0073
0.408	4.458	1.9921
0.409	4.4652	1.979
0.41	4.4722	1.9683
0.411	4.4795	1.9601
0.412	4.4877	1.9544
0.413	4.4974	1.9513
0.414	4.5093	1.9507
0.415	4.5242	1.9522
0.416	4.5428	1.9555
0.417	4.5661	1.9596
0.418	4.5945	1.9637
0.419	4.6286	1.9662
0.42	4.6684	1.9658
0.421	4.7135	1.9606
0.422	4.7629	1.9489
0.423	4.8151	1.9295
0.424	4.8679	1.9014
0.425	4.9192	1.8645
0.426	4.9667	1.8194
0.427	5.0085	1.7673
0.428	5.0434	1.7099
0.429	5.0705	1.6492
0.43	5.09	1.5869
0.431	5.102	1.5248
0.432	5.1075	1.4641
0.433	5.1074	1.4058
0.434	5.1024	1.3504
0.435	5.0937	1.2982
0.436	5.082	1.2494
0.437	5.068	1.204
0.438	5.0523	1.1618
0.439	5.0354	1.1226
0.44	5.0177	1.0862
0.441	4.9994	1.0524
0.442	4.9809	1.021
0.443	4.9622	0.99175
0.444	4.9436	0.96444
0.445	4.9251	0.9389
0.446	4.9068	0.91498
0.447	4.8887	0.89252
0.448	4.871	0.87138
0.449	4.8535	0.85146
0.45	4.8365	0.83263
0.451	4.8197	0.81482
0.452	4.8033	0.79792
0.453	4.7873	0.78188
0.454	4.7716	0.76661
0.455	4.7563	0.75206
0.456	4.7413	0.73818
0.457	4.7267	0.72492
0.458	4.7123	0.71222
0.459	4.6983	0.70006
0.46	4.6846	0.6884
0.461	4.6712	0.6772
0.462	4.6581	0.66643
0.463	4.6452	0.65607
0.464	4.6326	0.64609
0.465	4.6203	0.63647
0.466	4.6083	0.62719
0.467	4.5965	0.61823
0.468	4.5849	0.60958
0.469	4.5735	0.6012
0.47	4.5624	0.5931
0.471	4.5515	0.58526
0.472	4.5408	0.57766
0.473	4.5304	0.57029
0.474	4.5201	0.56314
0.475	4.51	0.55621
0.476	4.5001	0.54947
0.477	4.4903	0.54292
0.478	4.4808	0.53656
0.479	4.4714	0.53037
0.48	4.4622	0.52434
0.481	4.4531	0.51848
0.482	4.4443	0.51276
0.483	4.4355	0.5072
0.484	4.4269	0.50177
0.485	4.4185	0.49647
0.486	4.4102	0.49131
0.487	4.402	0.48627
0.488	4.394	0.48135
0.489	4.3861	0.47654
0.49	4.3783	0.47184
0.491	4.3707	0.46725
0.492	4.3632	0.46275
0.493	4.3558	0.45836
0.494	4.3485	0.45406
0.495	4.3413	0.44985
0.496	4.3343	0.44573
0.497	4.3273	0.44169
0.498	4.3205	0.43773
0.499	4.3137	0.43385
0.5	4.3071	0.43005
0.501	4.3005	0.42631
0.502	4.2941	0.42265
0.503	4.2877	0.41906
0.504	4.2815	0.41553
0.505	4.2753	0.41207
0.506	4.2692	0.40867
0.507	4.2632	0.40532
0.508	4.2573	0.40204
0.509	4.2514	0.39881
0.51	4.2457	0.39563
0.511	4.24	0.39251
0.512	4.2344	0.38943
0.513	4.2288	0.38641
0.514	4.2234	0.38343
0.515	4.218	0.3805
0.516	4.2127	0.37761
0.517	4.2074	0.37477
0.518	4.2023	0.37197
0.519	4.1971	0.3692
0.52	4.1921	0.36648
0.521	4.1871	0.3638
0.522	4.1822	0.36116
0.523	4.1773	0.35855
0.524	4.1725	0.35597
0.525	4.1677	0.35344
0.526	4.163	0.35093
0.527	4.1584	0.34846
0.528	4.1538	0.34602
0.529	4.1492	0.34361
0.53	4.1448	0.34123
0.531	4.1403	0.33888
0.532	4.1359	0.33656
0.533	4.1316	0.33427
0.534	4.1273	0.33201
0.535	4.123	0.32977
0.536	4.1188	0.32757
0.537	4.1147	0.32538
0.538	4.1106	0.32322
0.539	4.1065	0.32109
0.54	4.1025	0.31898
0.541	4.0985	0.3169
0.542	4.0945	0.31484
0.543	4.0906	0.31281
0.544	4.0867	0.31079
0.545	4.0829	0.3088
0.546	4.0791	0.30683
0.547	4.0753	0.30489
0.548	4.0716	0.30296
0.549	4.0679	0.30106
0.55	4.0643	0.29917
0.551	4.0606	0.29731
0.552	4.0571	0.29547
0.553	4.0535	0.29365
0.554	4.05	0.29184
0.555	4.0465	0.29006
0.556	4.043	0.2883
0.557	4.0396	0.28655
0.558	4.0362	0.28483
0.559	4.0328	0.28312
0.56	4.0295	0.28144
0.561	4.0261	0.27977
0.562	4.0229	0.27812
0.563	4.0196	0.27648
0.564	4.0164	0.27487
0.565	4.0132	0.27327
0.566	4.01	0.27169
0.567	4.0068	0.27013
0.568	4.0037	0.26859
0.569	4.0006	0.26706
0.57	3.9975	0.26555
0.571	3.9945	0.26406
0.572	3.9914	0.26258
0.573	3.9884	0.26112
0.574	3.9855	0.25968
0.575	3.9825	0.25825
0.576	3.9796	0.25684
0.577	3.9767	0.25544
0.578	3.9738	0.25406
0.579	3.9709	0.2527
0.58	3.9681	0.25135
0.581	3.9653	0.25002
0.582	3.9625	0.24871
0.583	3.9597	0.24741
0.584	3.9569	0.24612
0.585	3.9542	0.24485
0.586	3.9515	0.2436
0.587	3.9488	0.24236
0.588	3.9462	0.24113
0.589	3.9435	0.23992
0.59	3.9409	0.23872
0.591	3.9383	0.23754
0.592	3.9357	0.23637
0.593	3.9332	0.23522
0.594	3.9306	0.23408
0.595	3.9281	0.23295
0.596	3.9256	0.23184
0.597	3.9231	0.23074
0.598	3.9207	0.22965
0.599	3.9183	0.22858
0.6	3.9158	0.22752
0.601	3.9135	0.22647
0.602	3.9111	0.22544
0.603	3.9087	0.22441
0.604	3.9064	0.2234
0.605	3.9041	0.22241
0.606	3.9018	0.22142
0.607	3.8995	0.22044
0.608	3.8973	0.21948
0.609	3.895	0.21853
0.61	3.8928	0.21759
0.611	3.8906	0.21666
0.612	3.8885	0.21574
0.613	3.8863	0.21483
0.614	3.8842	0.21393
0.615	3.8821	0.21304
0.616	3.88	0.21216
0.617	3.8779	0.21129
0.618	3.8758	0.21043
0.619	3.8738	0.20958
0.62	3.8718	0.20874
0.621	3.8698	0.20791
0.622	3.8678	0.20708
0.623	3.8659	0.20627
0.624	3.8639	0.20546
0.625	3.862	0.20465
0.626	3.8601	0.20386
0.627	3.8582	0.20307
0.628	3.8563	0.20229
0.629	3.8545	0.20152
0.63	3.8527	0.20075
0.631	3.8509	0.19999
0.632	3.8491	0.19923
0.633	3.8473	0.19848
0.634	3.8456	0.19774
0.635	3.8438	0.197
0.636	3.8421	0.19626
0.637	3.8404	0.19553
0.638	3.8387	0.1948
0.639	3.8371	0.19408
0.64	3.8354	0.19336
0.641	3.8338	0.19264
0.642	3.8322	0.19193
0.643	3.8306	0.19122
0.644	3.829	0.19051
0.645	3.8275	0.1898
0.646	3.8259	0.1891
0.647	3.8244	0.18839
0.648	3.8229	0.18769
0.649	3.8214	0.18699
0.65	3.8199	0.18629
0.651	3.8185	0.18559
0.652	3.817	0.18489
0.653	3.8156	0.18418
0.654	3.8142	0.18348
0.655	3.8128	0.18278
0.656	3.8114	0.18208
0.657	3.81	0.18137
0.658	3.8086	0.18067
0.659	3.8073	0.17996
0.66	3.806	0.17925
0.661	3.8047	0.17854
0.662	3.8033	0.17783
0.663	3.8021	0.17711
0.664	3.8008	0.17639
0.665	3.7995	0.17567
0.666	3.7983	0.17494
0.667	3.797	0.17422
0.668	3.7958	0.17348
0.669	3.7946	0.17275
0.67	3.7933	0.17201
0.671	3.7921	0.17126
0.672	3.7909	0.17051
0.673	3.7898	0.16976
0.674	3.7886	0.169
0.675	3.7874	0.16824
0.676	3.7863	0.16748
0.677	3.7851	0.1667
0.678	3.784	0.16593
0.679	3.7828	0.16515
0.68	3.7817	0.16436
0.681	3.7806	0.16357
0.682	3.7795	0.16277
0.683	3.7784	0.16197
0.684	3.7773	0.16117
0.685	3.7762	0.16036
0.686	3.7751	0.15954
0.687	3.774	0.15872
0.688	3.7729	0.15789
0.689	3.7718	0.15706
0.69	3.7707	0.15622
0.691	3.7696	0.15538
0.692	3.7686	0.15454
0.693	3.7675	0.15369
0.694	3.7664	0.15283
0.695	3.7653	0.15197
0.696	3.7643	0.15111
0.697	3.7632	0.15024
0.698	3.7621	0.14937
0.699	3.761	0.1485
0.7	3.76	0.14762
0.701	3.7589	0.14674
0.702	3.7578	0.14585
0.703	3.7567	0.14496
0.704	3.7557	0.14407
0.705	3.7546	0.14318
0.706	3.7535	0.14229
0.707	3.7524	0.14139
0.708	3.7513	0.14049
0.709	3.7502	0.13959
0.71	3.7491	0.13869
0.711	3.7481	0.13779
0.712	3.747	0.13688
0.713	3.7458	0.13598
0.714	3.7447	0.13508
0.715	3.7436	0.13418
0.716	3.7425	0.13327
0.717	3.7414	0.13237
0.718	3.7403	0.13147
0.719	3.7391	0.13057
0.72	3.738	0.12968
0.721	3.7369	0.12878
0.722	3.7357	0.12789
0.723	3.7346	0.127
0.724	3.7334	0.12611
0.725	3.7323	0.12523
0.726	3.7311	0.12435
0.727	3.7299	0.12347
0.728	3.7287	0.1226
0.729	3.7276	0.12174
0.73	3.7264	0.12087
0.731	3.7252	0.12002
0.732	3.724	0.11917
0.733	3.7228	0.11832
0.734	3.7216	0.11748
0.735	3.7204	0.11665
0.736	3.7192	0.11582
0.737	3.7179	0.115
0.738	3.7167	0.11419
0.739	3.7155	0.11339
0.74	3.7143	0.11259
0.741	3.713	0.1118
0.742	3.7118	0.11102
0.743	3.7105	0.11025
0.744	3.7093	0.10949
0.745	3.708	0.10873
0.746	3.7068	0.10799
0.747	3.7055	0.10726
0.748	3.7042	0.10653
0.749	3.703	0.10582
0.75	3.7017	0.10511
0.751	3.7004	0.10442
0.752	3.6992	0.10373
0.753	3.6979	0.10306
0.754	3.6966	0.1024
0.755	3.6953	0.10175
0.756	3.694	0.10111
0.757	3.6927	0.10049
0.758	3.6914	0.099871
0.759	3.6902	0.099268
0.76	3.6889	0.098678
0.761	3.6876	0.0981
0.762	3.6863	0.097535
0.763	3.685	0.096982
0.764	3.6837	0.096442
0.765	3.6824	0.095916
0.766	3.6811	0.095403
0.767	3.6798	0.094903
0.768	3.6785	0.094417
0.769	3.6772	0.093944
0.77	3.6759	0.093486
0.771	3.6746	0.093041
0.772	3.6734	0.092611
0.773	3.6721	0.092195
0.774	3.6708	0.091793
0.775	3.6695	0.091406
0.776	3.6682	0.091033
0.777	3.667	0.090675
0.778	3.6657	0.090332
0.779	3.6644	0.090004
0.78	3.6632	0.089691
0.781	3.6619	0.089393
0.782	3.6607	0.089111
0.783	3.6594	0.088844
0.784	3.6582	0.088592
0.785	3.657	0.088356
0.786	3.6557	0.088136
0.787	3.6545	0.087931
0.788	3.6533	0.087741
0.789	3.6521	0.087568
0.79	3.6509	0.08741
0.791	3.6497	0.087269
0.792	3.6486	0.087142
0.793	3.6474	0.087032
0.794	3.6463	0.086938
0.795	3.6451	0.086859
0.796	3.644	0.086795
0.797	3.6429	0.086747
0.798	3.6418	0.086715
0.799	3.6407	0.086698
0.8	3.6396	0.086696
0.801	3.6385	0.086709
0.802	3.6375	0.086736
0.803	3.6365	0.086777
0.804	3.6354	0.086833
0.805	3.6345	0.086902
0.806	3.6335	0.086984
0.807	3.6325	0.087079
0.808	3.6316	0.087186
0.809	3.6307	0.087305
0.81	3.6298	0.087434
0.811	3.6289	0.087573
0.812	3.6281	0.087722
0.813	3.6272	0.087878
0.814	3.6264	0.088042
0.815	3.6256	0.088213
0.816	3.6249	0.088388
0.817	3.6242	0.088567
0.818	3.6235	0.088749
0.819	3.6228	0.088932
0.82	3.6221	0.089115
0.821	3.6215	0.089295
0.822	3.6209	0.089473
0.823	3.6203	0.089645
0.824	3.6198	0.08981
0.825	3.6193	0.089966
0.826	3.6188	0.090112
0.827	3.6183	0.090246
0.828	3.6179	0.090367
0.829	3.6174	0.090472
0.83	3.617	0.090561
0.831	3.6166	0.090632
0.832	3.6162	0.090683
0.833	3.6159	0.090715
0.834	3.6155	0.090727
0.835	3.6151	0.090718
0.836	3.6148	0.090689
0.837	3.6144	0.09064
0.838	3.6141	0.090573
0.839	3.6137	0.09049
0.84	3.6133	0.090392
0.841	3.6129	0.090284
0.842	3.6125	0.090167
0.843	3.6121	0.090048
0.844	3.6116	0.08993
0.845	3.6111	0.08982
0.846	3.6106	0.089723
0.847	3.6101	0.089648
0.848	3.6095	0.089602
0.849	3.609	0.089592
0.85	3.6084	0.08963
0.851	3.6078	0.089723
0.852	3.6071	0.089882
0.853	3.6065	0.090118
0.854	3.6059	0.090442
0.855	3.6053	0.090864
0.856	3.6048	0.091396
0.857	3.6043	0.092048
0.858	3.6039	0.092829
0.859	3.6036	0.093746
0.86	3.6035	0.094802
0.861	3.6035	0.095993
0.862	3.6039	0.097305
0.863	3.6046	0.098705
0.864	3.6057	0.10014
0.865	3.6073	0.10151
0.866	3.6095	0.10267
0.867	3.6122	0.10343
0.868	3.6155	0.10353
0.869	3.6192	0.1027
0.87	3.6229	0.10072
0.871	3.6261	0.097538
0.872	3.6285	0.093356
0.873	3.6296	0.088609
0.874	3.6293	0.083841
0.875	3.6279	0.079535
0.876	3.6257	0.075987
0.877	3.623	0.073298
0.878	3.6202	0.071424
0.879	3.6175	0.070243
0.88	3.6149	0.069612
0.881	3.6127	0.069395
0.882	3.6108	0.069472
0.883	3.6091	0.06975
0.884	3.6078	0.070153
0.885	3.6067	0.070624
0.886	3.6058	0.071117
0.887	3.6052	0.071598
0.888	3.6047	0.072041
0.889	3.6045	0.072425
0.89	3.6043	0.072735
0.891	3.6043	0.072959
0.892	3.6044	0.073088
0.893	3.6046	0.073116
0.894	3.6049	0.073041
0.895	3.6052	0.07286
0.896	3.6055	0.072573
0.897	3.6059	0.072182
0.898	3.6062	0.07169
0.899	3.6066	0.071101
0.9	3.6069	0.07042
0.901	3.6073	0.069653
0.902	3.6076	0.068805
0.903	3.6078	0.067885
0.904	3.608	0.066898
0.905	3.6082	0.065853
0.906	3.6083	0.064756
0.907	3.6083	0.063616
0.908	3.6083	0.062438
0.909	3.6082	0.06123
0.91	3.6081	0.059998
0.911	3.6079	0.058749
0.912	3.6076	0.057488
0.913	3.6073	0.05622
0.914	3.607	0.054951
0.915	3.6065	0.053685
0.916	3.6061	0.052425
0.917	3.6055	0.051176
0.918	3.605	0.04994
0.919	3.6043	0.048721
0.92	3.6037	0.04752
0.921	3.603	0.046339
0.922	3.6022	0.045181
0.923	3.6015	0.044047
0.924	3.6007	0.042937
0.925	3.5998	0.041853
0.926	3.599	0.040796
0.927	3.5981	0.039765
0.928	3.5972	0.038761
0.929	3.5963	0.037785
0.93	3.5954	0.036836
0.931	3.5944	0.035914
0.932	3.5934	0.035018
0.933	3.5925	0.03415
0.934	3.5915	0.033307
0.935	3.5905	0.032491
0.936	3.5895	0.0317
0.937	3.5885	0.030934
0.938	3.5874	0.030192
0.939	3.5864	0.029473
0.94	3.5854	0.028778
0.941	3.5844	0.028106
0.942	3.5833	0.027455
0.943	3.5823	0.026826
0.944	3.5813	0.026217
0.945	3.5802	0.025629
0.946	3.5792	0.02506
0.947	3.5782	0.02451
0.948	3.5771	0.023978
0.949	3.5761	0.023465
0.95	3.5751	0.022968
0.951	3.5741	0.022489
0.952	3.573	0.022025
0.953	3.572	0.021577
0.954	3.571	0.021145
0.955	3.57	0.020727
0.956	3.569	0.020324
0.957	3.568	0.019935
0.958	3.567	0.019559
0.959	3.566	0.019197
0.96	3.565	0.018847
0.961	3.5641	0.018509
0.962	3.5631	0.018184
0.963	3.5621	0.017871
0.964	3.5611	0.017568
0.965	3.5602	0.017278
0.966	3.5592	0.016998
0.967	3.5583	0.016729
0.968	3.5573	0.01647
0.969	3.5564	0.016221
0.97	3.5554	0.015983
0.971	3.5545	0.015755
0.972	3.5536	0.015536
0.973	3.5527	0.015327
0.974	3.5517	0.015128
0.975	3.5508	0.014938
0.976	3.5499	0.014757
0.977	3.549	0.014586
0.978	3.5481	0.014424
0.979	3.5472	0.014271
0.98	3.5463	0.014128
0.981	3.5454	0.013994
0.982	3.5446	0.01387
0.983	3.5437	0.013755
0.984	3.5428	0.01365
0.985	3.5419	0.013555
0.986	3.5411	0.01347
0.987	3.5402	0.013395
0.988	3.5394	0.01333
0.989	3.5385	0.013277
0.99	3.5377	0.013234
0.991	3.5368	0.013203
0.992	3.536	0.013183
0.993	3.5352	0.013176
0.994	3.5343	0.013181
0.995	3.5335	0.013199
0.996	3.5327	0.013231
0.997	3.5319	0.013276
0.998	3.5311	0.013336
0.999	3.5303	0.013412
1	3.5296	0.013502
1.001	3.5288	0.013609
1.002	3.528	0.013731
1.003	3.5273	0.013871
1.004	3.5266	0.014027
1.005	3.5259	0.014199
1.006	3.5252	0.014389
1.007	3.5245	0.014594
1.008	3.5239	0.014815
1.009	3.5233	0.01505
1.01	3.5227	0.015297
1.011	3.5222	0.015554
1.012	3.5217	0.015819
1.013	3.5212	0.016088
1.014	3.5208	0.016357
1.015	3.5204	0.01662
1.016	3.5201	0.016873
1.017	3.5198	0.01711
1.018	3.5195	0.017324
1.019	3.5193	0.01751
1.02	3.5191	0.017661
1.021	3.519	0.017771
1.022	3.5188	0.017837
1.023	3.5187	0.017853
1.024	3.5186	0.01782
1.025	3.5185	0.017735
1.026	3.5184	0.017599
1.027	3.5183	0.017416
1.028	3.5182	0.017189
1.029	3.518	0.016923
1.03	3.5179	0.016623
1.031	3.5176	0.016296
1.032	3.5174	0.015947
1.033	3.5171	0.015582
1.034	3.5168	0.015208
1.035	3.5164	0.014828
1.036	3.516	0.014448
1.037	3.5156	0.014072
1.038	3.5151	0.013702
1.039	3.5147	0.013342
1.04	3.5142	0.012993
1.041	3.5137	0.012657
1.042	3.5131	0.012335
1.043	3.5126	0.012029
1.044	3.512	0.011737
1.045	3.5114	0.011462
1.046	3.5108	0.011202
1.047	3.5102	0.010957
1.048	3.5096	0.010728
1.049	3.509	0.010515
1.05	3.5084	0.010316
1.051	3.5078	0.010132
1.052	3.5072	0.0099619
1.053	3.5066	0.0098059
1.054	3.506	0.0096634
1.055	3.5053	0.0095343
1.056	3.5047	0.0094181
1.057	3.5041	0.0093148
1.058	3.5035	0.0092241
1.059	3.5029	0.0091458
1.06	3.5023	0.00908
1.061	3.5017	0.0090264
1.062	3.5011	0.008985
1.063	3.5005	0.0089559
1.064	3.4999	0.0089391
1.065	3.4993	0.0089346
1.066	3.4987	0.0089426
1.067	3.4982	0.008963
1.068	3.4976	0.008996
1.069	3.497	0.0090417
1.07	3.4965	0.0091
1.071	3.496	0.0091708
1.072	3.4954	0.0092542
1.073	3.4949	0.0093497
1.074	3.4944	0.0094571
1.075	3.4939	0.0095756
1.076	3.4935	0.0097044
1.077	3.493	0.0098424
1.078	3.4926	0.009988
1.079	3.4922	0.010139
1.08	3.4919	0.010294
1.081	3.4915	0.01045
1.082	3.4912	0.010604
1.083	3.4909	0.010751
1.084	3.4907	0.010889
1.085	3.4904	0.011013
1.086	3.4902	0.011119
1.087	3.49	0.011204
1.088	3.4899	0.011263
1.089	3.4897	0.011293
1.09	3.4896	0.011292
1.091	3.4895	0.011259
1.092	3.4894	0.011193
1.093	3.4892	0.011095
1.094	3.4891	0.010966
1.095	3.489	0.010808
1.096	3.4888	0.010625
1.097	3.4886	0.01042
1.098	3.4884	0.010198
1.099	3.4882	0.0099609
1.1	3.488	0.0097138
1.101	3.4877	0.0094599
1.102	3.4874	0.0092024
1.103	3.4871	0.0089443
1.104	3.4868	0.008688
1.105	3.4865	0.0084354
1.106	3.4861	0.0081881
1.107	3.4857	0.0079475
1.108	3.4854	0.0077144
1.109	3.485	0.0074896
1.11	3.4846	0.0072733
1.111	3.4841	0.0070659
1.112	3.4837	0.0068674
1.113	3.4833	0.0066778
1.114	3.4829	0.0064968
1.115	3.4825	0.0063242
1.116	3.482	0.0061598
1.117	3.4816	0.0060033
1.118	3.4812	0.0058543
1.119	3.4807	0.0057124
1.12	3.4803	0.0055773
1.121	3.4799	0.0054487
1.122	3.4794	0.0053262
1.123	3.479	0.0052094
1.124	3.4786	0.0050981
1.125	3.4781	0.0049919
1.126	3.4777	0.0048905
1.127	3.4773	0.0047936
1.128	3.4769	0.0047011
1.129	3.4764	0.0046125
1.13	3.476	0.0045278
1.131	3.4756	0.0044466
1.132	3.4752	0.0043688
1.133	3.4748	0.0042941
1.134	3.4744	0.0042225
1.135	3.4739	0.0041536
1.136	3.4735	0.0040874
1.137	3.4731	0.0040237
1.138	3.4727	0.0039624
1.139	3.4723	0.0039033
1.14	3.4719	0.0038464
1.141	3.4715	0.0037914
1.142	3.4711	0.0037383
1.143	3.4708	0.003687
1.144	3.4704	0.0036375
1.145	3.47	0.0035895
1.146	3.4696	0.0035431
1.147	3.4692	0.0034981
1.148	3.4688	0.0034546
1.149	3.4684	0.0034123
1.15	3.4681	0.0033713
1.151	3.4677	0.0033315
1.152	3.4673	0.0032928
1.153	3.467	0.0032553
1.154	3.4666	0.0032187
1.155	3.4662	0.0031832
1.156	3.4659	0.0031486
1.157	3.4655	0.0031149
1.158	3.4651	0.0030821
1.159	3.4648	0.0030501
1.16	3.4644	0.0030189
1.161	3.4641	0.0029885
1.162	3.4637	0.0029588
1.163	3.4634	0.0029298
1.164	3.463	0.0029015
1.165	3.4627	0.0028739
1.166	3.4623	0.0028469
1.167	3.462	0.0028204
1.168	3.4616	0.0027946
1.169	3.4613	0.0027693
1.17	3.461	0.0027446
1.171	3.4606	0.0027204
1.172	3.4603	0.0026966
1.173	3.4599	0.0026734
1.174	3.4596	0.0026506
1.175	3.4593	0.0026283
1.176	3.459	0.0026064
1.177	3.4586	0.002585
1.178	3.4583	0.0025639
1.179	3.458	0.0025433
1.18	3.4576	0.002523
1.181	3.4573	0.0025031
1.182	3.457	0.0024836
1.183	3.4567	0.0024644
1.184	3.4564	0.0024456
1.185	3.456	0.002427
1.186	3.4557	0.0024088
1.187	3.4554	0.0023909
1.188	3.4551	0.0023734
1.189	3.4548	0.0023561
1.19	3.4545	0.002339
1.191	3.4542	0.0023223
1.192	3.4539	0.0023058
1.193	3.4536	0.0022896
1.194	3.4533	0.0022737
1.195	3.453	0.002258
1.196	3.4527	0.0022425
1.197	3.4524	0.0022273
1.198	3.4521	0.0022123
1.199	3.4518	0.0021975
1.2	3.4515	0.002183